#          \hbar \omega(eV)    Oscillator strength
       0.000000000000000E+00  -.000000000000000E+00
       0.100000000000000E-01  0.145938499908193E-04
       0.200000000000000E-01  0.583779485939047E-04
       0.300000000000000E-01  0.131359942626612E-03
       0.400000000000000E-01  0.233552579870012E-03
       0.500000000000000E-01  0.364973713699098E-03
       0.600000000000000E-01  0.525646309569036E-03
       0.700000000000000E-01  0.715598453361469E-03
       0.800000000000000E-01  0.934863361595982E-03
       0.900000000000000E-01  0.118347939351298E-02
       0.100000000000000E+00  0.146149006503541E-02
       0.110000000000000E+00  0.176894406461801E-02
       0.120000000000000E+00  0.210589527099360E-02
       0.130000000000000E+00  0.247240277282770E-02
       0.140000000000000E+00  0.286853089029316E-02
       0.150000000000000E+00  0.329434919857867E-02
       0.160000000000000E+00  0.374993255334499E-02
       0.170000000000000E+00  0.423536111814546E-02
       0.180000000000000E+00  0.475072039382697E-02
       0.190000000000000E+00  0.529610124993039E-02
       0.200000000000000E+00  0.587159995810937E-02
       0.210000000000000E+00  0.647731822758876E-02
       0.220000000000000E+00  0.711336324268462E-02
       0.230000000000000E+00  0.777984770240919E-02
       0.240000000000000E+00  0.847688986218576E-02
       0.250000000000000E+00  0.920461357769978E-02
       0.260000000000000E+00  0.996314835091341E-02
       0.270000000000000E+00  0.107526293782729E-01
       0.280000000000000E+00  0.115731976011389E-01
       0.290000000000000E+00  0.124249997584728E-01
       0.300000000000000E+00  0.133081884418103E-01
       0.310000000000000E+00  0.142229221525602E-01
       0.320000000000000E+00  0.151693653616621E-01
       0.330000000000000E+00  0.161476885716439E-01
       0.340000000000000E+00  0.171580683811174E-01
       0.350000000000000E+00  0.182006875517532E-01
       0.360000000000000E+00  0.192757350777800E-01
       0.370000000000000E+00  0.203834062580521E-01
       0.380000000000000E+00  0.215239027707328E-01
       0.390000000000000E+00  0.226974327506407E-01
       0.400000000000000E+00  0.239042108693129E-01
       0.410000000000000E+00  0.251444584178350E-01
       0.420000000000000E+00  0.264184033924931E-01
       0.430000000000000E+00  0.277262805833061E-01
       0.440000000000000E+00  0.290683316654962E-01
       0.450000000000000E+00  0.304448052939569E-01
       0.460000000000000E+00  0.318559572007875E-01
       0.470000000000000E+00  0.333020502959517E-01
       0.480000000000000E+00  0.347833547711368E-01
       0.490000000000000E+00  0.363001482068782E-01
       0.500000000000000E+00  0.378527156830236E-01
       0.510000000000000E+00  0.394413498926159E-01
       0.520000000000000E+00  0.410663512592676E-01
       0.530000000000000E+00  0.427280280581143E-01
       0.540000000000000E+00  0.444266965404252E-01
       0.550000000000000E+00  0.461626810619630E-01
       0.560000000000000E+00  0.479363142151783E-01
       0.570000000000000E+00  0.497479369653380E-01
       0.580000000000000E+00  0.515978987906756E-01
       0.590000000000000E+00  0.534865578266737E-01
       0.600000000000000E+00  0.554142810145731E-01
       0.610000000000000E+00  0.573814442542178E-01
       0.620000000000000E+00  0.593884325613516E-01
       0.630000000000000E+00  0.614356402294739E-01
       0.640000000000000E+00  0.635234709963749E-01
       0.650000000000000E+00  0.656523382154771E-01
       0.660000000000000E+00  0.678226650321034E-01
       0.670000000000000E+00  0.700348845648059E-01
       0.680000000000000E+00  0.722894400918933E-01
       0.690000000000000E+00  0.745867852432905E-01
       0.700000000000000E+00  0.769273841978872E-01
       0.710000000000000E+00  0.793117118865066E-01
       0.720000000000000E+00  0.817402542006762E-01
       0.730000000000000E+00  0.842135082073296E-01
       0.740000000000000E+00  0.867319823696387E-01
       0.750000000000000E+00  0.892961967741175E-01
       0.760000000000000E+00  0.919066833642031E-01
       0.770000000000000E+00  0.945639861804752E-01
       0.780000000000000E+00  0.972686616077190E-01
       0.790000000000000E+00  0.100021278629026E+00
       0.800000000000000E+00  0.102822419087130E+00
       0.810000000000000E+00  0.105672677953204E+00
       0.820000000000001E+00  0.108572663603318E+00
       0.830000000000001E+00  0.111522998102806E+00
       0.840000000000001E+00  0.114524317498750E+00
       0.850000000000001E+00  0.117577272120857E+00
       0.860000000000001E+00  0.120682526890947E+00
       0.870000000000001E+00  0.123840761641342E+00
       0.880000000000001E+00  0.127052671442395E+00
       0.890000000000001E+00  0.130318966939478E+00
       0.900000000000001E+00  0.133640374699673E+00
       0.910000000000001E+00  0.137017637568502E+00
       0.920000000000001E+00  0.140451515036995E+00
       0.930000000000001E+00  0.143942783619409E+00
       0.940000000000001E+00  0.147492237241944E+00
       0.950000000000001E+00  0.151100687642796E+00
       0.960000000000001E+00  0.154768964783907E+00
       0.970000000000001E+00  0.158497917274787E+00
       0.980000000000001E+00  0.162288412808778E+00
       0.990000000000001E+00  0.166141338612194E+00
       0.100000000000000E+01  0.170057601906702E+00
       0.101000000000000E+01  0.174038130385421E+00
       0.102000000000000E+01  0.178083872703157E+00
       0.103000000000000E+01  0.182195798981246E+00
       0.104000000000000E+01  0.186374901327481E+00
       0.105000000000000E+01  0.190622194371627E+00
       0.106000000000000E+01  0.194938715817037E+00
       0.107000000000000E+01  0.199325527008904E+00
       0.108000000000000E+01  0.203783713519711E+00
       0.109000000000000E+01  0.208314385752453E+00
       0.110000000000000E+01  0.212918679562239E+00
       0.111000000000000E+01  0.217597756896885E+00
       0.112000000000000E+01  0.222352806457158E+00
       0.113000000000000E+01  0.227185044377344E+00
       0.114000000000000E+01  0.232095714926827E+00
       0.115000000000000E+01  0.237086091233425E+00
       0.116000000000000E+01  0.242157476029223E+00
       0.117000000000000E+01  0.247311202419696E+00
       0.118000000000000E+01  0.252548634676940E+00
       0.119000000000000E+01  0.257871169057854E+00
       0.120000000000000E+01  0.263280234648161E+00
       0.121000000000000E+01  0.268777294233198E+00
       0.122000000000000E+01  0.274363845196397E+00
       0.123000000000000E+01  0.280041420446503E+00
       0.124000000000000E+01  0.285811589374509E+00
       0.125000000000000E+01  0.291675958841430E+00
       0.126000000000000E+01  0.297636174198021E+00
       0.127000000000000E+01  0.303693920337603E+00
       0.128000000000000E+01  0.309850922783212E+00
       0.129000000000000E+01  0.316108948810361E+00
       0.130000000000000E+01  0.322469808606708E+00
       0.131000000000000E+01  0.328935356470021E+00
       0.132000000000000E+01  0.335507492045873E+00
       0.133000000000000E+01  0.342188161606551E+00
       0.134000000000000E+01  0.348979359372758E+00
       0.135000000000000E+01  0.355883128879722E+00
       0.136000000000000E+01  0.362901564389380E+00
       0.137000000000000E+01  0.370036812350489E+00
       0.138000000000000E+01  0.377291072908364E+00
       0.139000000000000E+01  0.384666601466360E+00
       0.140000000000000E+01  0.392165710300917E+00
       0.141000000000000E+01  0.399790770232398E+00
       0.142000000000000E+01  0.407544212353856E+00
       0.143000000000000E+01  0.415428529820026E+00
       0.144000000000000E+01  0.423446279698939E+00
       0.145000000000000E+01  0.431600084888644E+00
       0.146000000000000E+01  0.439892636101652E+00
       0.147000000000000E+01  0.448326693919852E+00
       0.148000000000000E+01  0.456905090922715E+00
       0.149000000000000E+01  0.465630733891798E+00
       0.150000000000000E+01  0.474506606094638E+00
       0.151000000000000E+01  0.483535769651359E+00
       0.152000000000000E+01  0.492721367987317E+00
       0.153000000000000E+01  0.502066628375455E+00
       0.154000000000000E+01  0.511574864572028E+00
       0.155000000000000E+01  0.521249479549703E+00
       0.156000000000000E+01  0.531093968332033E+00
       0.157000000000000E+01  0.541111920933716E+00
       0.158000000000000E+01  0.551307025411066E+00
       0.159000000000000E+01  0.561683071027453E+00
       0.160000000000000E+01  0.572243951538687E+00
       0.161000000000000E+01  0.582993668603457E+00
       0.162000000000000E+01  0.593936335324385E+00
       0.163000000000000E+01  0.605076179925331E+00
       0.164000000000000E+01  0.616417549570965E+00
       0.165000000000000E+01  0.627964914334902E+00
       0.166000000000000E+01  0.639722871323053E+00
       0.167000000000000E+01  0.651696148959067E+00
       0.168000000000000E+01  0.663889611439167E+00
       0.169000000000000E+01  0.676308263364140E+00
       0.170000000000000E+01  0.688957254556415E+00
       0.171000000000000E+01  0.701841885070729E+00
       0.172000000000000E+01  0.714967610407379E+00
       0.173000000000000E+01  0.728340046937294E+00
       0.174000000000000E+01  0.741964977548917E+00
       0.175000000000000E+01  0.755848357527175E+00
       0.176000000000000E+01  0.769996320675510E+00
       0.177000000000000E+01  0.784415185692521E+00
       0.178000000000000E+01  0.799111462815239E+00
       0.179000000000000E+01  0.814091860741918E+00
       0.180000000000000E+01  0.829363293847780E+00
       0.181000000000000E+01  0.844932889707832E+00
       0.182000000000000E+01  0.860807996941926E+00
       0.183000000000000E+01  0.876996193397626E+00
       0.184000000000000E+01  0.893505294687816E+00
       0.185000000000000E+01  0.910343363100446E+00
       0.186000000000000E+01  0.927518716899187E+00
       0.187000000000000E+01  0.945039940034501E+00
       0.188000000000000E+01  0.962915892286078E+00
       0.189000000000000E+01  0.981155719858406E+00
       0.190000000000000E+01  0.999768866452803E+00
       0.191000000000000E+01  0.101876508484053E+01
       0.192000000000000E+01  0.103815444896281E+01
       0.193000000000000E+01  0.105794736658549E+01
       0.194000000000000E+01  0.107815459253738E+01
       0.195000000000000E+01  0.109878724256302E+01
       0.196000000000000E+01  0.111985680782304E+01
       0.197000000000000E+01  0.114137517007623E+01
       0.198000000000000E+01  0.116335461758065E+01
       0.199000000000000E+01  0.118580786175242E+01
       0.200000000000000E+01  0.120874805462405E+01
       0.201000000000000E+01  0.123218880714587E+01
       0.202000000000000E+01  0.125614420837773E+01
       0.203000000000000E+01  0.128062884562040E+01
       0.204000000000000E+01  0.130565782553953E+01
       0.205000000000000E+01  0.133124679633858E+01
       0.206000000000000E+01  0.135741197104009E+01
       0.207000000000000E+01  0.138417015193936E+01
       0.208000000000000E+01  0.141153875629803E+01
       0.209000000000000E+01  0.143953584334985E+01
       0.210000000000000E+01  0.146818014269566E+01
       0.211000000000000E+01  0.149749108416954E+01
       0.212000000000000E+01  0.152748882926380E+01
       0.213000000000000E+01  0.155819430420621E+01
       0.214000000000000E+01  0.158962923478924E+01
       0.215000000000000E+01  0.162181618305809E+01
       0.216000000000000E+01  0.165477858597121E+01
       0.217000000000000E+01  0.168854079615544E+01
       0.218000000000000E+01  0.172312812488609E+01
       0.219000000000000E+01  0.175856688743155E+01
       0.220000000000000E+01  0.179488445091187E+01
       0.221000000000000E+01  0.183210928483182E+01
       0.222000000000000E+01  0.187027101445973E+01
       0.223000000000000E+01  0.190940047723700E+01
       0.224000000000000E+01  0.194952978241565E+01
       0.225000000000000E+01  0.199069237413634E+01
       0.226000000000000E+01  0.203292309817555E+01
       0.227000000000000E+01  0.207625827260680E+01
       0.228000000000000E+01  0.212073576264047E+01
       0.229000000000000E+01  0.216639505992590E+01
       0.229999999999999E+01  0.221327736662246E+01
       0.230999999999999E+01  0.226142568456896E+01
       0.231999999999999E+01  0.231088490990773E+01
       0.232999999999999E+01  0.236170193354675E+01
       0.233999999999999E+01  0.241392574787508E+01
       0.234999999999999E+01  0.246760756017873E+01
       0.235999999999999E+01  0.252280091324219E+01
       0.236999999999999E+01  0.257956181365895E+01
       0.237999999999999E+01  0.263794886841878E+01
       0.238999999999999E+01  0.269802343038644E+01
       0.239999999999999E+01  0.275984975333829E+01
       0.240999999999999E+01  0.282349515728012E+01
       0.241999999999999E+01  0.288903020483147E+01
       0.242999999999999E+01  0.295652888952974E+01
       0.243999999999999E+01  0.302606883698232E+01
       0.244999999999999E+01  0.309773151987652E+01
       0.245999999999999E+01  0.317160248794783E+01
       0.246999999999999E+01  0.324777161410527E+01
       0.247999999999999E+01  0.332633335802281E+01
       0.248999999999999E+01  0.340738704862560E+01
       0.249999999999999E+01  0.349103718703179E+01
       0.250999999999999E+01  0.357739377165898E+01
       0.251999999999999E+01  0.366657264736460E+01
       0.252999999999999E+01  0.375869588066925E+01
       0.253999999999999E+01  0.385389216331163E+01
       0.254999999999999E+01  0.395229724660130E+01
       0.255999999999999E+01  0.405405440928277E+01
       0.256999999999999E+01  0.415931496189258E+01
       0.257999999999999E+01  0.426823879089623E+01
       0.258999999999999E+01  0.438099494622452E+01
       0.259999999999999E+01  0.449776227620663E+01
       0.260999999999999E+01  0.461873011431345E+01
       0.261999999999999E+01  0.474409902259361E+01
       0.262999999999999E+01  0.487408159720638E+01
       0.263999999999999E+01  0.500890334204288E+01
       0.264999999999999E+01  0.514880361708487E+01
       0.265999999999999E+01  0.529403666888607E+01
       0.266999999999999E+01  0.544487275139637E+01
       0.267999999999999E+01  0.560159934628047E+01
       0.268999999999999E+01  0.576452249294194E+01
       0.269999999999999E+01  0.593396823965212E+01
       0.270999999999999E+01  0.611028422853764E+01
       0.271999999999999E+01  0.629384142870241E+01
       0.272999999999999E+01  0.648503603350040E+01
       0.273999999999999E+01  0.668429153994400E+01
       0.274999999999999E+01  0.689206103047688E+01
       0.275999999999999E+01  0.710882967990346E+01
       0.276999999999998E+01  0.733511751318820E+01
       0.277999999999998E+01  0.757148244318529E+01
       0.278999999999998E+01  0.781852362119869E+01
       0.279999999999998E+01  0.807688513767445E+01
       0.280999999999998E+01  0.834726011540586E+01
       0.281999999999998E+01  0.863039524347175E+01
       0.282999999999998E+01  0.892709580689212E+01
       0.283999999999998E+01  0.923823127480350E+01
       0.284999999999998E+01  0.956474151903295E+01
       0.285999999999998E+01  0.990764374550280E+01
       0.286999999999998E+01  0.102680402331984E+02
       0.287999999999998E+01  0.106471269897901E+02
       0.288999999999998E+01  0.110462034498269E+02
       0.289999999999998E+01  0.114666833611494E+02
       0.290999999999998E+01  0.119101070284037E+02
       0.291999999999998E+01  0.123781551099281E+02
       0.292999999999998E+01  0.128726641966911E+02
       0.293999999999998E+01  0.133956444403915E+02
       0.294999999999998E+01  0.139492995435363E+02
       0.295999999999998E+01  0.145360494788246E+02
       0.296999999999998E+01  0.151585563703835E+02
       0.297999999999998E+01  0.158197540476532E+02
       0.298999999999998E+01  0.165228818769020E+02
       0.299999999999998E+01  0.172715235890903E+02
       0.300999999999998E+01  0.180696519605935E+02
       0.301999999999998E+01  0.189216803707872E+02
       0.302999999999998E+01  0.198325224648266E+02
       0.303999999999998E+01  0.208076614000571E+02
       0.304999999999998E+01  0.218532304617848E+02
       0.305999999999998E+01  0.229761072130433E+02
       0.306999999999998E+01  0.241840238119849E+02
       0.307999999999998E+01  0.254856967131911E+02
       0.308999999999998E+01  0.268909796958758E+02
       0.309999999999998E+01  0.284110450716900E+02
       0.310999999999998E+01  0.300585990680289E+02
       0.311999999999998E+01  0.318481388246791E+02
       0.312999999999998E+01  0.337962602668063E+02
       0.313999999999998E+01  0.359220284353199E+02
       0.314999999999998E+01  0.382474248084928E+02
       0.315999999999998E+01  0.407978899196971E+02
       0.316999999999998E+01  0.436029844006608E+02
       0.317999999999998E+01  0.466971977571336E+02
       0.318999999999998E+01  0.501209420882631E+02
       0.319999999999998E+01  0.539217780467644E+02
       0.320999999999998E+01  0.581559331285866E+02
       0.321999999999998E+01  0.628901884260232E+02
       0.322999999999998E+01  0.682042297227751E+02
       0.323999999999997E+01  0.741935823073608E+02
       0.324999999999997E+01  0.809732751787305E+02
       0.325999999999997E+01  0.886824061890683E+02
       0.326999999999997E+01  0.974897970978059E+02
       0.327999999999997E+01  0.107600918772125E+03
       0.328999999999997E+01  0.119266195016398E+03
       0.329999999999997E+01  0.132790585219573E+03
       0.330999999999997E+01  0.148543859444306E+03
       0.331999999999997E+01  0.166969951868248E+03
       0.332999999999997E+01  0.188591748007130E+03
       0.333999999999997E+01  0.214003890111605E+03
       0.334999999999997E+01  0.243839709904153E+03
       0.335999999999997E+01  0.278688626757667E+03
       0.336999999999997E+01  0.318929264891473E+03
       0.337999999999997E+01  0.364441314931307E+03
       0.338999999999997E+01  0.414193393269257E+03
       0.339999999999997E+01  0.465820784010569E+03
       0.340999999999997E+01  0.515520224063759E+03
       0.341999999999997E+01  0.558737927754287E+03
       0.342999999999997E+01  0.591805863533026E+03
       0.343999999999997E+01  0.613735440012588E+03
       0.344999999999997E+01  0.626721341800831E+03
       0.345999999999997E+01  0.634731209980943E+03
       0.346999999999997E+01  0.641167809298753E+03
       0.347999999999997E+01  0.647148429635992E+03
       0.348999999999997E+01  0.651265236198974E+03
       0.349999999999997E+01  0.650806085438728E+03
       0.350999999999997E+01  0.643643907260618E+03
       0.351999999999997E+01  0.629447547073837E+03
       0.352999999999997E+01  0.609304279497558E+03
       0.353999999999997E+01  0.584305139901509E+03
       0.354999999999997E+01  0.554579059664576E+03
       0.355999999999997E+01  0.519650581855644E+03
       0.356999999999997E+01  0.479620671029562E+03
       0.357999999999997E+01  0.435931627388774E+03
       0.358999999999997E+01  0.391050477635598E+03
       0.359999999999997E+01  0.347525231985424E+03
       0.360999999999997E+01  0.307233767587792E+03
       0.361999999999997E+01  0.271164612314849E+03
       0.362999999999997E+01  0.239574646827249E+03
       0.363999999999997E+01  0.212261258421636E+03
       0.364999999999997E+01  0.188795476061250E+03
       0.365999999999997E+01  0.168674526611157E+03
       0.366999999999997E+01  0.151405388800176E+03
       0.367999999999997E+01  0.136543006935045E+03
       0.368999999999997E+01  0.123702844010732E+03
       0.369999999999997E+01  0.112560554041903E+03
       0.370999999999996E+01  0.102846071093199E+03
       0.371999999999996E+01  0.943359191747877E+02
       0.372999999999996E+01  0.868455546512178E+02
       0.373999999999996E+01  0.802224961893715E+02
       0.374999999999996E+01  0.743404714832809E+02
       0.375999999999996E+01  0.690945678521558E+02
       0.376999999999996E+01  0.643972761598199E+02
       0.377999999999996E+01  0.601752897888840E+02
       0.378999999999996E+01  0.563669241290187E+02
       0.379999999999996E+01  0.529200380421905E+02
       0.380999999999996E+01  0.497903579412773E+02
       0.381999999999996E+01  0.469401234493608E+02
