#          \hbar \omega(eV)    Oscillator strength
       0.000000000000000E+00  -.000000000000000E+00
       0.100000000000000E-01  0.198767934334234E-04
       0.200000000000000E-01  0.795125070174743E-04
       0.300000000000000E-01  0.178923143863218E-03
       0.400000000000000E-01  0.318135386691795E-03
       0.500000000000000E-01  0.497186614151207E-03
       0.600000000000000E-01  0.716124923685255E-03
       0.700000000000000E-01  0.975009160980195E-03
       0.800000000000000E-01  0.127390895602201E-02
       0.900000000000000E-01  0.161290476580452E-02
       0.100000000000000E+00  0.199208792373632E-02
       0.110000000000000E+00  0.241156069580185E-02
       0.120000000000000E+00  0.287143634353968E-02
       0.130000000000000E+00  0.337183919390912E-02
       0.140000000000000E+00  0.391290471612368E-02
       0.150000000000000E+00  0.449477960553872E-02
       0.160000000000000E+00  0.511762187468798E-02
       0.170000000000000E+00  0.578160095157316E-02
       0.180000000000000E+00  0.648689778531819E-02
       0.190000000000000E+00  0.723370495930961E-02
       0.200000000000000E+00  0.802222681195286E-02
       0.210000000000000E+00  0.885267956518398E-02
       0.220000000000000E+00  0.972529146088580E-02
       0.230000000000000E+00  0.106403029053667E-01
       0.240000000000000E+00  0.115979666220719E-01
       0.250000000000000E+00  0.125985478127050E-01
       0.260000000000000E+00  0.136423243269524E-01
       0.270000000000000E+00  0.147295868410088E-01
       0.280000000000000E+00  0.158606390451192E-01
       0.290000000000000E+00  0.170357978403620E-01
       0.300000000000000E+00  0.182553935449079E-01
       0.310000000000000E+00  0.195197701100093E-01
       0.320000000000000E+00  0.208292853459795E-01
       0.330000000000000E+00  0.221843111584421E-01
       0.340000000000000E+00  0.235852337951418E-01
       0.350000000000000E+00  0.250324541036237E-01
       0.360000000000000E+00  0.265263878001036E-01
       0.370000000000000E+00  0.280674657498704E-01
       0.380000000000000E+00  0.296561342595754E-01
       0.390000000000000E+00  0.312928553817840E-01
       0.400000000000000E+00  0.329781072321821E-01
       0.410000000000000E+00  0.347123843198513E-01
       0.420000000000000E+00  0.364961978910446E-01
       0.430000000000000E+00  0.383300762869178E-01
       0.440000000000000E+00  0.402145653156958E-01
       0.450000000000000E+00  0.421502286397691E-01
       0.460000000000000E+00  0.441376481782525E-01
       0.470000000000000E+00  0.461774245255516E-01
       0.480000000000000E+00  0.482701773865193E-01
       0.490000000000000E+00  0.504165460288066E-01
       0.500000000000000E+00  0.526171897530453E-01
       0.510000000000000E+00  0.548727883815322E-01
       0.520000000000000E+00  0.571840427661136E-01
       0.530000000000000E+00  0.595516753160111E-01
       0.540000000000000E+00  0.619764305463533E-01
       0.550000000000000E+00  0.644590756482367E-01
       0.560000000000000E+00  0.670004010811570E-01
       0.570000000000000E+00  0.696012211887130E-01
       0.580000000000000E+00  0.722623748385212E-01
       0.590000000000000E+00  0.749847260873304E-01
       0.600000000000000E+00  0.777691648723746E-01
       0.610000000000000E+00  0.806166077300538E-01
       0.620000000000000E+00  0.835279985430946E-01
       0.630000000000000E+00  0.865043093173981E-01
       0.640000000000000E+00  0.895465409898399E-01
       0.650000000000000E+00  0.926557242683677E-01
       0.660000000000000E+00  0.958329205057968E-01
       0.670000000000000E+00  0.990792226087859E-01
       0.680000000000000E+00  0.102395755983559E+00
       0.690000000000000E+00  0.105783679520011E+00
       0.700000000000000E+00  0.109244186615941E+00
       0.710000000000000E+00  0.112778506243215E+00
       0.720000000000000E+00  0.116387904057828E+00
       0.730000000000000E+00  0.120073683555846E+00
       0.740000000000000E+00  0.123837187277421E+00
       0.750000000000000E+00  0.127679798061109E+00
       0.760000000000000E+00  0.131602940350912E+00
       0.770000000000000E+00  0.135608081558544E+00
       0.780000000000000E+00  0.139696733483614E+00
       0.790000000000000E+00  0.143870453794548E+00
       0.800000000000000E+00  0.148130847573225E+00
       0.810000000000000E+00  0.152479568926516E+00
       0.820000000000001E+00  0.156918322668050E+00
       0.830000000000001E+00  0.161448866073772E+00
       0.840000000000001E+00  0.166073010715053E+00
       0.850000000000001E+00  0.170792624373325E+00
       0.860000000000001E+00  0.175609633040487E+00
       0.870000000000001E+00  0.180526023009570E+00
       0.880000000000001E+00  0.185543843060409E+00
       0.890000000000001E+00  0.190665206745414E+00
       0.900000000000001E+00  0.195892294780790E+00
       0.910000000000001E+00  0.201227357548962E+00
       0.920000000000001E+00  0.206672717718278E+00
       0.930000000000001E+00  0.212230772986463E+00
       0.940000000000001E+00  0.217903998954769E+00
       0.950000000000001E+00  0.223694952140133E+00
       0.960000000000001E+00  0.229606273133242E+00
       0.970000000000001E+00  0.235640689910851E+00
       0.980000000000001E+00  0.241801021311305E+00
       0.990000000000001E+00  0.248090180682858E+00
       0.100000000000000E+01  0.254511179714937E+00
       0.101000000000000E+01  0.261067132463368E+00
       0.102000000000000E+01  0.267761259581199E+00
       0.103000000000000E+01  0.274596892767698E+00
       0.104000000000000E+01  0.281577479448955E+00
       0.105000000000000E+01  0.288706587704490E+00
       0.106000000000000E+01  0.295987911455386E+00
       0.107000000000000E+01  0.303425275930538E+00
       0.108000000000000E+01  0.311022643428905E+00
       0.109000000000000E+01  0.318784119397021E+00
       0.110000000000000E+01  0.326713958842490E+00
       0.111000000000000E+01  0.334816573105722E+00
       0.112000000000000E+01  0.343096537014096E+00
       0.113000000000000E+01  0.351558596444465E+00
       0.114000000000000E+01  0.360207676322124E+00
       0.115000000000000E+01  0.369048889086626E+00
       0.116000000000000E+01  0.378087543657296E+00
       0.117000000000000E+01  0.387329154934084E+00
       0.118000000000000E+01  0.396779453872399E+00
       0.119000000000000E+01  0.406444398173808E+00
       0.120000000000000E+01  0.416330183638207E+00
       0.121000000000000E+01  0.426443256227016E+00
       0.122000000000000E+01  0.436790324891304E+00
       0.123000000000000E+01  0.447378375223734E+00
       0.124000000000000E+01  0.458214683998433E+00
       0.125000000000000E+01  0.469306834668917E+00
       0.126000000000000E+01  0.480662733900765E+00
       0.127000000000000E+01  0.492290629222916E+00
       0.128000000000000E+01  0.504199127889703E+00
       0.129000000000000E+01  0.516397217054551E+00
       0.130000000000000E+01  0.528894285366404E+00
       0.131000000000000E+01  0.541700146111016E+00
       0.132000000000000E+01  0.554825062031696E+00
       0.133000000000000E+01  0.568279771978047E+00
       0.134000000000000E+01  0.582075519546798E+00
       0.135000000000000E+01  0.596224083896301E+00
       0.136000000000000E+01  0.610737812935938E+00
       0.137000000000000E+01  0.625629659113782E+00
       0.138000000000000E+01  0.640913218050649E+00
       0.139000000000000E+01  0.656602770297085E+00
       0.140000000000000E+01  0.672713326521297E+00
       0.141000000000000E+01  0.689260676472386E+00
       0.142000000000000E+01  0.706261442104010E+00
       0.143000000000000E+01  0.723733135290292E+00
       0.144000000000000E+01  0.741694220618708E+00
       0.145000000000000E+01  0.760164183805485E+00
       0.146000000000000E+01  0.779163606348278E+00
       0.147000000000000E+01  0.798714247110503E+00
       0.148000000000000E+01  0.818839131623050E+00
       0.149000000000000E+01  0.839562649994567E+00
       0.150000000000000E+01  0.860910664442827E+00
       0.151000000000000E+01  0.882910627600605E+00
       0.152000000000000E+01  0.905591712912534E+00
       0.153000000000000E+01  0.928984958629049E+00
       0.154000000000000E+01  0.953123427124932E+00
       0.155000000000000E+01  0.978042381528236E+00
       0.156000000000000E+01  0.100377948194825E+01
       0.157000000000000E+01  0.103037500394725E+01
       0.158000000000000E+01  0.105787208232000E+01
       0.159000000000000E+01  0.108631698374044E+01
       0.160000000000000E+01  0.111575941242264E+01
       0.161000000000000E+01  0.114625285364069E+01
       0.162000000000000E+01  0.117785496078565E+01
       0.163000000000000E+01  0.121062799263244E+01
       0.164000000000000E+01  0.124463930868607E+01
       0.165000000000000E+01  0.127996193191472E+01
       0.166000000000000E+01  0.131667518991733E+01
       0.167000000000000E+01  0.135486544768120E+01
       0.168000000000000E+01  0.139462694765178E+01
       0.169000000000000E+01  0.143606277597055E+01
       0.170000000000000E+01  0.147928597757885E+01
       0.171000000000000E+01  0.152442084761383E+01
       0.172000000000000E+01  0.157160443236255E+01
       0.173000000000000E+01  0.162098828028397E+01
       0.174000000000000E+01  0.167274049262580E+01
       0.175000000000000E+01  0.172704813443532E+01
       0.176000000000000E+01  0.178412008090732E+01
       0.177000000000000E+01  0.184419039182952E+01
       0.178000000000000E+01  0.190752232941363E+01
       0.179000000000000E+01  0.197441316338477E+01
       0.180000000000000E+01  0.204519994359067E+01
       0.181000000000000E+01  0.212026646684399E+01
       0.182000000000000E+01  0.220005172414299E+01
       0.183000000000000E+01  0.228506019054789E+01
       0.184000000000000E+01  0.237587441752056E+01
       0.185000000000000E+01  0.247317051223494E+01
       0.186000000000000E+01  0.257773724705742E+01
       0.187000000000000E+01  0.269049974252610E+01
       0.188000000000000E+01  0.281254891556056E+01
       0.189000000000000E+01  0.294517818453555E+01
       0.190000000000000E+01  0.308992926737882E+01
       0.191000000000000E+01  0.324864926758265E+01
       0.192000000000000E+01  0.342356153519626E+01
       0.193000000000000E+01  0.361735283254004E+01
       0.194000000000000E+01  0.383327874511300E+01
       0.195000000000000E+01  0.407528730030336E+01
       0.196000000000000E+01  0.434815596634276E+01
       0.197000000000000E+01  0.465762707954516E+01
       0.198000000000000E+01  0.501050720516629E+01
       0.199000000000000E+01  0.541466132928537E+01
       0.200000000000000E+01  0.587877765834796E+01
       0.201000000000000E+01  0.641170337117778E+01
       0.202000000000000E+01  0.702107013501771E+01
       0.203000000000000E+01  0.771086916743177E+01
       0.204000000000000E+01  0.847762714789342E+01
       0.205000000000000E+01  0.930496794478234E+01
       0.206000000000000E+01  0.101571364739000E+02
       0.207000000000000E+01  0.109746250953969E+02
       0.208000000000000E+01  0.116790079136170E+02
       0.209000000000000E+01  0.121937427090259E+02
       0.210000000000000E+01  0.124758275119425E+02
       0.211000000000000E+01  0.125371990137475E+02
       0.212000000000000E+01  0.124376311253684E+02
       0.213000000000000E+01  0.122557232455882E+02
       0.214000000000000E+01  0.120611738269115E+02
       0.215000000000000E+01  0.119027701434208E+02
       0.216000000000000E+01  0.118097400784786E+02
       0.217000000000000E+01  0.117974803605658E+02
       0.218000000000000E+01  0.118720170305475E+02
       0.219000000000000E+01  0.120325723027889E+02
       0.220000000000000E+01  0.122732674356581E+02
       0.221000000000000E+01  0.125846101376435E+02
       0.222000000000000E+01  0.129557987924529E+02
       0.223000000000000E+01  0.133789165143113E+02
       0.224000000000000E+01  0.138535016440079E+02
       0.225000000000000E+01  0.143875130377786E+02
       0.226000000000000E+01  0.149932918752049E+02
       0.227000000000000E+01  0.156821794447513E+02
       0.228000000000000E+01  0.164616794464790E+02
       0.229000000000000E+01  0.173347976022187E+02
       0.229999999999999E+01  0.182994830394688E+02
       0.230999999999999E+01  0.193494047726282E+02
       0.231999999999999E+01  0.204799447130503E+02
       0.232999999999999E+01  0.216988615885123E+02
       0.233999999999999E+01  0.230329038148790E+02
       0.234999999999999E+01  0.245218769504393E+02
       0.235999999999999E+01  0.262032183014187E+02
       0.236999999999999E+01  0.280994845474551E+02
       0.237999999999999E+01  0.302182551781269E+02
       0.238999999999999E+01  0.325631962651516E+02
       0.239999999999999E+01  0.351456668812745E+02
       0.240999999999999E+01  0.379863961784958E+02
       0.241999999999999E+01  0.411083226663747E+02
       0.242999999999999E+01  0.445328996351059E+02
       0.243999999999999E+01  0.482857146033494E+02
       0.244999999999999E+01  0.523955411071761E+02
       0.245999999999999E+01  0.568644489516731E+02
       0.246999999999999E+01  0.616149259274783E+02
       0.247999999999999E+01  0.664560925848803E+02
       0.248999999999999E+01  0.711136543822726E+02
       0.249999999999999E+01  0.753262820940604E+02
       0.250999999999999E+01  0.789516921088245E+02
       0.251999999999999E+01  0.820036921104333E+02
       0.252999999999999E+01  0.845900535493481E+02
       0.253999999999999E+01  0.867990005280960E+02
       0.254999999999999E+01  0.886091602806751E+02
       0.255999999999999E+01  0.898596741366345E+02
       0.256999999999999E+01  0.902870969217253E+02
       0.257999999999999E+01  0.896374426477463E+02
       0.258999999999999E+01  0.878252330777309E+02
       0.259999999999999E+01  0.850412558092091E+02
       0.260999999999999E+01  0.817183561117387E+02
       0.261999999999999E+01  0.783735816247700E+02
       0.262999999999999E+01  0.754352208799858E+02
       0.263999999999999E+01  0.731466435634709E+02
       0.264999999999999E+01  0.715651642834502E+02
       0.265999999999999E+01  0.706239036065640E+02
       0.266999999999999E+01  0.702073836912422E+02
       0.267999999999999E+01  0.701922861965216E+02
       0.268999999999999E+01  0.704360655295222E+02
       0.269999999999999E+01  0.707511276884789E+02
       0.270999999999999E+01  0.709246792089177E+02
       0.271999999999999E+01  0.708007913453776E+02
       0.272999999999999E+01  0.703734319034066E+02
       0.273999999999999E+01  0.698177937974922E+02
       0.274999999999999E+01  0.694350813421010E+02
       0.275999999999999E+01  0.695527875415872E+02
       0.276999999999998E+01  0.704416550015302E+02
       0.277999999999998E+01  0.722762755834566E+02
       0.278999999999998E+01  0.751286101942130E+02
       0.279999999999998E+01  0.789760053354513E+02
       0.280999999999998E+01  0.837173847562311E+02
       0.281999999999998E+01  0.891967514578373E+02
       0.282999999999998E+01  0.952194579746855E+02
       0.283999999999998E+01  0.101537332379619E+03
       0.284999999999998E+01  0.107813566267694E+03
       0.285999999999998E+01  0.113636813786736E+03
       0.286999999999998E+01  0.118648132432903E+03
       0.287999999999998E+01  0.122742931025427E+03
       0.288999999999998E+01  0.126208531038724E+03
       0.289999999999998E+01  0.129675979604468E+03
       0.290999999999998E+01  0.133898797681430E+03
       0.291999999999998E+01  0.139482437135346E+03
       0.292999999999998E+01  0.146672000390352E+03
       0.293999999999998E+01  0.155225668737401E+03
       0.294999999999998E+01  0.164371935888955E+03
       0.295999999999998E+01  0.172877205557775E+03
       0.296999999999998E+01  0.179263154194485E+03
       0.297999999999998E+01  0.182173879495979E+03
       0.298999999999998E+01  0.180820043352847E+03
       0.299999999999998E+01  0.175319969159817E+03
       0.300999999999998E+01  0.166695453088158E+03
       0.301999999999998E+01  0.156461663881272E+03
       0.302999999999998E+01  0.146069808196705E+03
       0.303999999999998E+01  0.136526860298483E+03
       0.304999999999998E+01  0.128302402083524E+03
       0.305999999999998E+01  0.121442761982380E+03
       0.306999999999998E+01  0.115767393269284E+03
       0.307999999999998E+01  0.111035588303402E+03
       0.308999999999998E+01  0.107003478791022E+03
       0.309999999999998E+01  0.103375116754491E+03
       0.310999999999998E+01  0.997506031260469E+02
       0.311999999999998E+01  0.956855600910833E+02
       0.312999999999998E+01  0.908677849906603E+02
       0.313999999999998E+01  0.852799336446475E+02
       0.314999999999998E+01  0.792043223643979E+02
       0.315999999999998E+01  0.730716533205385E+02
       0.316999999999998E+01  0.672840822443863E+02
       0.317999999999998E+01  0.621181130022995E+02
       0.318999999999998E+01  0.577150991071257E+02
       0.319999999999998E+01  0.541153849394771E+02
       0.320999999999998E+01  0.512973205017409E+02
       0.321999999999998E+01  0.492042408955715E+02
       0.322999999999998E+01  0.477579361124741E+02
       0.323999999999997E+01  0.468640154592396E+02
       0.324999999999997E+01  0.464152920200003E+02
       0.325999999999997E+01  0.462940606627823E+02
       0.326999999999997E+01  0.463668416715345E+02
       0.327999999999997E+01  0.464690297179043E+02
       0.328999999999997E+01  0.463976618142432E+02
       0.329999999999997E+01  0.459437125820829E+02
       0.330999999999997E+01  0.449682591613569E+02
       0.331999999999997E+01  0.434736593476636E+02
       0.332999999999997E+01  0.416077628053325E+02
       0.333999999999997E+01  0.395962190489342E+02
       0.334999999999997E+01  0.376580224602517E+02
       0.335999999999997E+01  0.359553049897174E+02
       0.336999999999997E+01  0.345854996141844E+02
       0.337999999999997E+01  0.335970512953942E+02
       0.338999999999997E+01  0.330097206241170E+02
       0.339999999999997E+01  0.328300761194610E+02
       0.340999999999997E+01  0.330597892900003E+02
       0.341999999999997E+01  0.336969427664952E+02
       0.342999999999997E+01  0.347307734908410E+02
       0.343999999999997E+01  0.361302231247101E+02
       0.344999999999997E+01  0.378278294034051E+02
       0.345999999999997E+01  0.397034021153256E+02
       0.346999999999997E+01  0.415757372854244E+02
       0.347999999999997E+01  0.432139558883800E+02
       0.348999999999997E+01  0.443807021286111E+02
       0.349999999999997E+01  0.449079565777907E+02
       0.350999999999997E+01  0.447740915211151E+02
       0.351999999999997E+01  0.441267876777608E+02
       0.352999999999997E+01  0.432281030154555E+02
       0.353999999999997E+01  0.423620202540800E+02
       0.354999999999997E+01  0.417647451702744E+02
       0.355999999999997E+01  0.416023251270772E+02
       0.356999999999997E+01  0.419823517712377E+02
       0.357999999999997E+01  0.429770517352420E+02
       0.358999999999997E+01  0.446431707956209E+02
       0.359999999999997E+01  0.470329154190116E+02
       0.360999999999997E+01  0.501940213142526E+02
       0.361999999999997E+01  0.541569555378660E+02
       0.362999999999997E+01  0.589061774364912E+02
       0.363999999999997E+01  0.643338673623156E+02
       0.364999999999997E+01  0.701835940616753E+02
       0.365999999999997E+01  0.760117895265295E+02
       0.366999999999997E+01  0.812180103133982E+02
       0.367999999999997E+01  0.851881805031742E+02
       0.368999999999997E+01  0.875252153944923E+02
       0.369999999999997E+01  0.882440128677099E+02
       0.370999999999996E+01  0.877944791237379E+02
       0.371999999999996E+01  0.868958971418966E+02
       0.372999999999996E+01  0.863035228724150E+02
       0.373999999999996E+01  0.866425991400830E+02
       0.374999999999996E+01  0.883513623021501E+02
       0.375999999999996E+01  0.916902802111591E+02
       0.376999999999996E+01  0.967554320547771E+02
       0.377999999999996E+01  0.103454156092589E+03
       0.378999999999996E+01  0.111430183072310E+03
       0.379999999999996E+01  0.119962259028946E+03
       0.380999999999996E+01  0.127913850792390E+03
       0.381999999999996E+01  0.133859022218092E+03
