#          \hbar \omega(eV)    Oscillator strength
       0.000000000000000E+00  -.000000000000000E+00
       0.100000000000000E-01  0.198767893633525E-04
       0.200000000000000E-01  0.795124907213197E-04
       0.300000000000000E-01  0.178923107137289E-03
       0.400000000000000E-01  0.318135321252726E-03
       0.500000000000000E-01  0.497186511603637E-03
       0.600000000000000E-01  0.716124775489063E-03
       0.700000000000000E-01  0.975008958417137E-03
       0.800000000000000E-01  0.127390869016165E-02
       0.900000000000000E-01  0.161290442746932E-02
       0.100000000000000E+00  0.199208750346565E-02
       0.110000000000000E+00  0.241156018381499E-02
       0.120000000000000E+00  0.287143572969736E-02
       0.130000000000000E+00  0.337183846767370E-02
       0.140000000000000E+00  0.391290386651768E-02
       0.150000000000000E+00  0.449477862110150E-02
       0.160000000000000E+00  0.511762074343051E-02
       0.170000000000000E+00  0.578159966093051E-02
       0.180000000000000E+00  0.648689632209973E-02
       0.190000000000000E+00  0.723370330964646E-02
       0.200000000000000E+00  0.802222496124263E-02
       0.210000000000000E+00  0.885267749803247E-02
       0.220000000000000E+00  0.972528916104509E-02
       0.230000000000000E+00  0.106403003556700E-01
       0.240000000000000E+00  0.115979638043639E-01
       0.250000000000000E+00  0.125985447077690E-01
       0.260000000000000E+00  0.136423209144313E-01
       0.270000000000000E+00  0.147295830993229E-01
       0.280000000000000E+00  0.158606349513775E-01
       0.290000000000000E+00  0.170357933702676E-01
       0.300000000000000E+00  0.182553886726583E-01
       0.310000000000000E+00  0.195197648081891E-01
       0.320000000000000E+00  0.208292795854461E-01
       0.330000000000000E+00  0.221843049082036E-01
       0.340000000000000E+00  0.235852270222269E-01
       0.350000000000000E+00  0.250324467729418E-01
       0.360000000000000E+00  0.265263798742958E-01
       0.370000000000000E+00  0.280674571891496E-01
       0.380000000000000E+00  0.296561250215558E-01
       0.390000000000000E+00  0.312928454212974E-01
       0.400000000000000E+00  0.329780965010816E-01
       0.410000000000000E+00  0.347123727668008E-01
       0.420000000000000E+00  0.364961854612929E-01
       0.430000000000000E+00  0.383300629220562E-01
       0.440000000000000E+00  0.402145509533974E-01
       0.450000000000000E+00  0.421502132135097E-01
       0.460000000000000E+00  0.441376316170101E-01
       0.470000000000000E+00  0.461774067534838E-01
       0.480000000000000E+00  0.482701583226153E-01
       0.490000000000000E+00  0.504165255865148E-01
       0.500000000000000E+00  0.526171678398707E-01
       0.510000000000000E+00  0.548727648986045E-01
       0.520000000000000E+00  0.571840176077210E-01
       0.530000000000000E+00  0.595516483690985E-01
       0.540000000000000E+00  0.619764016899818E-01
       0.550000000000000E+00  0.644590447530004E-01
       0.560000000000000E+00  0.670003680085538E-01
       0.570000000000000E+00  0.696011857904676E-01
       0.580000000000000E+00  0.722623369558516E-01
       0.590000000000000E+00  0.749846855501584E-01
       0.600000000000000E+00  0.777691214984717E-01
       0.610000000000000E+00  0.806165613241177E-01
       0.620000000000000E+00  0.835279488957534E-01
       0.630000000000000E+00  0.865042562041312E-01
       0.640000000000000E+00  0.895464841698108E-01
       0.650000000000000E+00  0.926556634831623E-01
       0.660000000000000E+00  0.958328554780546E-01
       0.670000000000000E+00  0.990791530407205E-01
       0.680000000000000E+00  0.102395681555353E+00
       0.690000000000000E+00  0.105783599888078E+00
       0.700000000000000E+00  0.109244101411033E+00
       0.710000000000000E+00  0.112778415068384E+00
       0.720000000000000E+00  0.116387806486196E+00
       0.730000000000000E+00  0.120073579128196E+00
       0.740000000000000E+00  0.123837075499573E+00
       0.750000000000000E+00  0.127679678401072E+00
       0.760000000000000E+00  0.131602812235784E+00
       0.770000000000000E+00  0.135607944371138E+00
       0.780000000000000E+00  0.139696586558790E+00
       0.790000000000000E+00  0.143870296415215E+00
       0.800000000000000E+00  0.148130678965986E+00
       0.810000000000000E+00  0.152479388256921E+00
       0.820000000000001E+00  0.156918129035415E+00
       0.830000000000001E+00  0.161448658505536E+00
       0.840000000000001E+00  0.166072788160601E+00
       0.850000000000001E+00  0.170792385697257E+00
       0.860000000000001E+00  0.175609377015251E+00
       0.870000000000001E+00  0.180525748307412E+00
       0.880000000000001E+00  0.185543548244562E+00
       0.890000000000001E+00  0.190664890260450E+00
       0.900000000000001E+00  0.195891954942066E+00
       0.910000000000001E+00  0.201226992531037E+00
       0.920000000000001E+00  0.206672325542223E+00
       0.930000000000001E+00  0.212230351505932E+00
       0.940000000000001E+00  0.217903545840711E+00
       0.950000000000001E+00  0.223694464863995E+00
       0.960000000000001E+00  0.229605748948510E+00
       0.970000000000001E+00  0.235640125832743E+00
       0.980000000000001E+00  0.241800414094429E+00
       0.990000000000001E+00  0.248089526796604E+00
       0.100000000000000E+01  0.254510475316360E+00
       0.101000000000000E+01  0.261066373367291E+00
       0.102000000000000E+01  0.267760441227221E+00
       0.103000000000000E+01  0.274596010183769E+00
       0.104000000000000E+01  0.281576527211124E+00
       0.105000000000000E+01  0.288705559892416E+00
       0.106000000000000E+01  0.295986801603089E+00
       0.107000000000000E+01  0.303424076971885E+00
       0.108000000000000E+01  0.311021347637201E+00
       0.109000000000000E+01  0.318782718318030E+00
       0.110000000000000E+01  0.326712443220089E+00
       0.111000000000000E+01  0.334814932799356E+00
       0.112000000000000E+01  0.343094760907019E+00
       0.113000000000000E+01  0.351556672341690E+00
       0.114000000000000E+01  0.360205590836804E+00
       0.115000000000000E+01  0.369046627513483E+00
       0.116000000000000E+01  0.378085089831486E+00
       0.117000000000000E+01  0.387326491073688E+00
       0.118000000000000E+01  0.396776560402490E+00
       0.119000000000000E+01  0.406441253529780E+00
       0.120000000000000E+01  0.416326764045716E+00
       0.121000000000000E+01  0.426439535455509E+00
       0.122000000000000E+01  0.436786273977747E+00
       0.123000000000000E+01  0.447373962162631E+00
       0.124000000000000E+01  0.458209873393654E+00
       0.125000000000000E+01  0.469301587342316E+00
       0.126000000000000E+01  0.480657006451724E+00
       0.127000000000000E+01  0.492284373532206E+00
       0.128000000000000E+01  0.504192290560007E+00
       0.129000000000000E+01  0.516389738778927E+00
       0.130000000000000E+01  0.528886100214639E+00
       0.131000000000000E+01  0.541691180722284E+00
       0.132000000000000E+01  0.554815234700250E+00
       0.133000000000000E+01  0.568268991616535E+00
       0.134000000000000E+01  0.582063684509504E+00
       0.135000000000000E+01  0.596211080641789E+00
       0.136000000000000E+01  0.610723514505313E+00
       0.137000000000000E+01  0.625613923397038E+00
       0.138000000000000E+01  0.640895885809098E+00
       0.139000000000000E+01  0.656583662904611E+00
       0.140000000000000E+01  0.672692243381076E+00
       0.141000000000000E+01  0.689237392058460E+00
       0.142000000000000E+01  0.706235702568563E+00
       0.143000000000000E+01  0.723704654567380E+00
       0.144000000000000E+01  0.741662675943260E+00
       0.145000000000000E+01  0.760129210552246E+00
       0.146000000000000E+01  0.779124792078442E+00
       0.147000000000000E+01  0.798671124693845E+00
       0.148000000000000E+01  0.818791171279378E+00
       0.149000000000000E+01  0.839509250069739E+00
       0.150000000000000E+01  0.860851140700386E+00
       0.151000000000000E+01  0.882844200768916E+00
       0.152000000000000E+01  0.905517494177914E+00
       0.153000000000000E+01  0.928901932705863E+00
       0.154000000000000E+01  0.953030432461511E+00
       0.155000000000000E+01  0.977938087120376E+00
       0.156000000000000E+01  0.100366236012629E+01
       0.157000000000000E+01  0.103024329837385E+01
       0.158000000000000E+01  0.105772377027880E+01
       0.159000000000000E+01  0.108614973160377E+01
       0.160000000000000E+01  0.111557052295078E+01
       0.161000000000000E+01  0.114603920347618E+01
       0.162000000000000E+01  0.117761292614870E+01
       0.163000000000000E+01  0.121035336078320E+01
       0.164000000000000E+01  0.124432717217206E+01
       0.165000000000000E+01  0.127960656194251E+01
       0.166000000000000E+01  0.131626988433958E+01
       0.167000000000000E+01  0.135440234803000E+01
       0.168000000000000E+01  0.139409681831905E+01
       0.169000000000000E+01  0.143545473696190E+01
       0.170000000000000E+01  0.147858718015352E+01
       0.171000000000000E+01  0.152361607944530E+01
       0.172000000000000E+01  0.157067563545223E+01
       0.173000000000000E+01  0.161991396052163E+01
       0.174000000000000E+01  0.167149499434296E+01
       0.175000000000000E+01  0.172560074617913E+01
       0.176000000000000E+01  0.178243392950292E+01
       0.177000000000000E+01  0.184222106997743E+01
       0.178000000000000E+01  0.190521618677341E+01
       0.179000000000000E+01  0.197170517126076E+01
       0.180000000000000E+01  0.204201101756782E+01
       0.181000000000000E+01  0.211650009821386E+01
       0.182000000000000E+01  0.219558972738580E+01
       0.183000000000000E+01  0.227975731755692E+01
       0.184000000000000E+01  0.236955151604952E+01
       0.185000000000000E+01  0.246560581197127E+01
       0.186000000000000E+01  0.256865523721693E+01
       0.187000000000000E+01  0.267955695598462E+01
       0.188000000000000E+01  0.279931575511690E+01
       0.189000000000000E+01  0.292911572323217E+01
       0.190000000000000E+01  0.307035975031134E+01
       0.191000000000000E+01  0.322471889720632E+01
       0.192000000000000E+01  0.339419417000702E+01
       0.193000000000000E+01  0.358119375106416E+01
       0.194000000000000E+01  0.378862918545134E+01
       0.195000000000000E+01  0.402003416311516E+01
       0.196000000000000E+01  0.427970886850137E+01
       0.197000000000000E+01  0.457289036362703E+01
       0.198000000000000E+01  0.490594311095447E+01
       0.199000000000000E+01  0.528654971249151E+01
       0.200000000000000E+01  0.572385334476741E+01
       0.201000000000000E+01  0.622844862061489E+01
       0.202000000000000E+01  0.681201978071870E+01
       0.203000000000000E+01  0.748626708390291E+01
       0.204000000000000E+01  0.826055114028891E+01
       0.205000000000000E+01  0.913752322743241E+01
       0.206000000000000E+01  0.101062370987681E+02
       0.207000000000000E+01  0.111335487238875E+02
       0.208000000000000E+01  0.121576466444253E+02
       0.209000000000000E+01  0.130911189840838E+02
       0.210000000000000E+01  0.138398897043471E+02
       0.211000000000000E+01  0.143334474733294E+02
       0.212000000000000E+01  0.145481945413518E+02
       0.213000000000000E+01  0.145078213491800E+02
       0.214000000000000E+01  0.142641196805329E+02
       0.215000000000000E+01  0.138762320754572E+02
       0.216000000000000E+01  0.134013074434131E+02
       0.217000000000000E+01  0.128940741280461E+02
       0.218000000000000E+01  0.124055959434148E+02
       0.219000000000000E+01  0.119780940815126E+02
       0.220000000000000E+01  0.116403848830781E+02
       0.221000000000000E+01  0.114076428992413E+02
       0.222000000000000E+01  0.112847237684566E+02
       0.223000000000000E+01  0.112704751221850E+02
       0.224000000000000E+01  0.113613090214176E+02
       0.225000000000000E+01  0.115535675808053E+02
       0.226000000000000E+01  0.118448840087167E+02
       0.227000000000000E+01  0.122349014754146E+02
       0.228000000000000E+01  0.127256538418179E+02
       0.229000000000000E+01  0.133218120010847E+02
       0.229999999999999E+01  0.140309201693630E+02
       0.230999999999999E+01  0.148636971120575E+02
       0.231999999999999E+01  0.158344509788679E+02
       0.232999999999999E+01  0.169616443030223E+02
       0.233999999999999E+01  0.182686405258036E+02
       0.234999999999999E+01  0.197846588061213E+02
       0.235999999999999E+01  0.215459524212237E+02
       0.236999999999999E+01  0.235971961026543E+02
       0.237999999999999E+01  0.259929986734430E+02
       0.238999999999999E+01  0.287993132732716E+02
       0.239999999999999E+01  0.320942389173997E+02
       0.240999999999999E+01  0.359672105744793E+02
       0.241999999999999E+01  0.405147856576166E+02
       0.242999999999999E+01  0.458302244332653E+02
       0.243999999999999E+01  0.519834139817092E+02
       0.244999999999999E+01  0.589891150134588E+02
       0.245999999999999E+01  0.667679671336128E+02
       0.246999999999999E+01  0.751171634581937E+02
       0.247999999999999E+01  0.837161344882814E+02
       0.248999999999999E+01  0.921724407795131E+02
       0.249999999999999E+01  0.100060426456971E+03
       0.250999999999999E+01  0.106889212946891E+03
       0.251999999999999E+01  0.112031048775340E+03
       0.252999999999999E+01  0.114755727966254E+03
       0.253999999999999E+01  0.114464695881814E+03
       0.254999999999999E+01  0.111008121604716E+03
       0.255999999999999E+01  0.104838321808089E+03
       0.256999999999999E+01  0.968672275435443E+02
       0.257999999999999E+01  0.881351423855653E+02
       0.258999999999999E+01  0.795129921337981E+02
       0.259999999999999E+01  0.715700470154961E+02
       0.260999999999999E+01  0.645902251011980E+02
       0.261999999999999E+01  0.586551442453052E+02
       0.262999999999999E+01  0.537299525817180E+02
       0.263999999999999E+01  0.497261141294675E+02
       0.264999999999999E+01  0.465394595652069E+02
       0.265999999999999E+01  0.440701931809289E+02
       0.266999999999999E+01  0.422319144553419E+02
       0.267999999999999E+01  0.409547223270399E+02
       0.268999999999999E+01  0.401854944004134E+02
       0.269999999999999E+01  0.398870583047014E+02
       0.270999999999999E+01  0.400371487663027E+02
       0.271999999999999E+01  0.406275932680150E+02
       0.272999999999999E+01  0.416639407885767E+02
       0.273999999999999E+01  0.431656433659494E+02
       0.274999999999999E+01  0.451668606887877E+02
       0.275999999999999E+01  0.477179496838533E+02
       0.276999999999998E+01  0.508877022240144E+02
       0.277999999999998E+01  0.547663849588278E+02
       0.278999999999998E+01  0.594695888795337E+02
       0.279999999999998E+01  0.651427656615085E+02
       0.280999999999998E+01  0.719660266300888E+02
       0.281999999999998E+01  0.801581518382832E+02
       0.282999999999998E+01  0.899775338497665E+02
       0.283999999999998E+01  0.101715556240928E+03
       0.284999999999998E+01  0.115674207120187E+03
       0.285999999999998E+01  0.132114449853096E+03
       0.286999999999998E+01  0.151156630813495E+03
       0.287999999999998E+01  0.172615164293180E+03
       0.288999999999998E+01  0.195770655077283E+03
       0.289999999999998E+01  0.219140342082274E+03
       0.290999999999998E+01  0.240396191190225E+03
       0.291999999999998E+01  0.256631124181283E+03
       0.292999999999998E+01  0.265074849606479E+03
       0.293999999999998E+01  0.264072461229025E+03
       0.294999999999998E+01  0.253815093582830E+03
       0.295999999999998E+01  0.236296730214315E+03
       0.296999999999998E+01  0.214478091284265E+03
       0.297999999999998E+01  0.191234963312463E+03
       0.298999999999998E+01  0.168690229224456E+03
       0.299999999999998E+01  0.148072859255184E+03
       0.300999999999998E+01  0.129897573639385E+03
       0.301999999999998E+01  0.114225699357636E+03
       0.302999999999998E+01  0.100880692660833E+03
       0.303999999999998E+01  0.895885660120665E+02
       0.304999999999998E+01  0.800563012608254E+02
       0.305999999999998E+01  0.720098545213551E+02
       0.306999999999998E+01  0.652091415659171E+02
       0.307999999999998E+01  0.594511960454502E+02
       0.308999999999998E+01  0.545679052361434E+02
       0.309999999999998E+01  0.504217031026511E+02
       0.310999999999998E+01  0.469008754592440E+02
       0.311999999999998E+01  0.439152117088267E+02
       0.312999999999998E+01  0.413922734954243E+02
       0.313999999999998E+01  0.392743312960885E+02
       0.314999999999998E+01  0.375159267079029E+02
       0.315999999999998E+01  0.360819871759980E+02
       0.316999999999998E+01  0.349464180398681E+02
       0.317999999999998E+01  0.340911073241324E+02
       0.318999999999998E+01  0.335052933744786E+02
       0.319999999999998E+01  0.331852599681548E+02
       0.320999999999998E+01  0.331343350624848E+02
       0.321999999999998E+01  0.333631745815759E+02
       0.322999999999998E+01  0.338903058804974E+02
       0.323999999999997E+01  0.347428759795589E+02
       0.324999999999997E+01  0.359574774372491E+02
       0.325999999999997E+01  0.375807756239020E+02
       0.326999999999997E+01  0.396693833881474E+02
       0.327999999999997E+01  0.422879647858489E+02
       0.328999999999997E+01  0.455038979119284E+02
       0.329999999999997E+01  0.493762383882823E+02
       0.330999999999997E+01  0.539371096093319E+02
       0.331999999999997E+01  0.591669721699887E+02
       0.332999999999997E+01  0.649735048869382E+02
       0.333999999999997E+01  0.711938168792242E+02
       0.334999999999997E+01  0.776351716720900E+02
       0.335999999999997E+01  0.841312401190474E+02
       0.336999999999997E+01  0.905423326242324E+02
       0.337999999999997E+01  0.966464277691299E+02
       0.338999999999997E+01  0.101978429819737E+03
       0.339999999999997E+01  0.105776934318641E+03
       0.340999999999997E+01  0.107172766893096E+03
       0.341999999999997E+01  0.105578172955440E+03
       0.342999999999997E+01  0.101023865268768E+03
       0.343999999999997E+01  0.941782181047903E+02
       0.344999999999997E+01  0.860450466016607E+02
       0.345999999999997E+01  0.775875586828368E+02
       0.346999999999997E+01  0.695022236048060E+02
       0.347999999999997E+01  0.621799397756663E+02
       0.348999999999997E+01  0.557733411791663E+02
       0.349999999999997E+01  0.502871008680652E+02
       0.350999999999997E+01  0.456503694862999E+02
       0.351999999999997E+01  0.417630904657563E+02
       0.352999999999997E+01  0.385214409928945E+02
       0.353999999999997E+01  0.358299125810033E+02
       0.354999999999997E+01  0.336058832830551E+02
       0.355999999999997E+01  0.317803881628533E+02
       0.356999999999997E+01  0.302971869726886E+02
       0.357999999999997E+01  0.291112270752722E+02
       0.358999999999997E+01  0.281870343398981E+02
       0.359999999999997E+01  0.274972657327399E+02
       0.360999999999997E+01  0.270215081753921E+02
       0.361999999999997E+01  0.267453391806908E+02
       0.362999999999997E+01  0.266596368635354E+02
       0.363999999999997E+01  0.267601194260081E+02
       0.364999999999997E+01  0.270470964871586E+02
       0.365999999999997E+01  0.275254214349046E+02
       0.366999999999997E+01  0.282046429098045E+02
       0.367999999999997E+01  0.290993635999747E+02
       0.368999999999997E+01  0.302298253914936E+02
       0.369999999999997E+01  0.316227513895503E+02
       0.370999999999996E+01  0.333124869154090E+02
       0.371999999999996E+01  0.353424918852007E+02
       0.372999999999996E+01  0.377672425632062E+02
       0.373999999999996E+01  0.406545940521024E+02
       0.374999999999996E+01  0.440886205819484E+02
       0.375999999999996E+01  0.481728581744283E+02
       0.376999999999996E+01  0.530336655659283E+02
       0.377999999999996E+01  0.588229888936896E+02
       0.378999999999996E+01  0.657189844683216E+02
       0.379999999999996E+01  0.739214537761228E+02
       0.380999999999996E+01  0.836365809412105E+02
       0.381999999999996E+01  0.950420476075338E+02
